# time, angle, voltage, aVel, aAcceleration, goal, limitSensor, lastError
0.000000, 0.100000, 0.000000, 0.000000, 0.000000, 0.200000, 0.000000, 0.000000
0.010000, 0.100000, -4.000000, 0.000000, -2.735658, 0.197500, 0.000000, -0.002500
0.020000, 0.099862, -4.000000, -0.027630, -2.735656, 0.195000, 0.000000, -0.004862
0.030000, 0.099445, -4.000000, -0.055260, -2.735655, 0.192500, 0.000000, -0.006945
0.040000, 0.098748, -3.771599, -0.082890, -2.579446, 0.190000, 0.000000, -0.008748
0.050000, 0.097781, -3.375436, -0.108943, -2.308503, 0.187500, 0.000000, -0.010281
0.060000, 0.096564, -3.003418, -0.132259, -2.054073, 0.185000, 0.000000, -0.011564
0.070000, 0.095124, -2.666290, -0.153005, -1.823505, 0.182500, 0.000000, -0.012624
0.080000, 0.093487, -2.361838, -0.171422, -1.615285, 0.180000, 0.000000, -0.013487
0.090000, 0.091674, -2.087161, -0.187737, -1.427428, 0.177500, 0.000000, -0.014174
0.100000, 0.089706, -1.839548, -0.202154, -1.258082, 0.175000, 0.000000, -0.014706
0.110000, 0.087601, -1.616523, -0.214860, -1.105551, 0.172500, 0.000000, -0.015101
0.120000, 0.085375, -1.415827, -0.226026, -0.968291, 0.170000, 0.000000, -0.015375
0.130000, 0.083043, -1.235399, -0.235806, -0.844893, 0.167500, 0.000000, -0.015543
0.140000, 0.080619, -1.073362, -0.244339, -0.734073, 0.165000, 0.000000, -0.015619
0.150000, 0.078114, -0.928004, -0.251754, -0.634660, 0.162500, 0.000000, -0.015614
0.160000, 0.075539, -0.797766, -0.258164, -0.545588, 0.160000, 0.000000, -0.015539
0.170000, 0.072904, -0.681227, -0.263674, -0.465885, 0.157500, 0.000000, -0.015404
0.180000, 0.070217, -0.577094, -0.268379, -0.394667, 0.155000, 0.000000, -0.015217
0.190000, 0.067487, -0.484189, -0.272366, -0.331128, 0.152500, 0.000000, -0.014987
0.200000, 0.064719, -0.401440, -0.275710, -0.274534, 0.150000, 0.000000, -0.014719
0.210000, 0.061921, -0.327871, -0.278483, -0.224219, 0.147500, 0.000000, -0.014421
0.220000, 0.059097, -0.262595, -0.280747, -0.179576, 0.145000, 0.000000, -0.014097
0.230000, 0.056252, -0.204806, -0.282561, -0.140053, 0.142500, 0.000000, -0.013752
0.240000, 0.053391, -0.153768, -0.283976, -0.105148, 0.140000, 0.000000, -0.013391
0.250000, 0.050518, -0.108817, -0.285038, -0.074405, 0.137500, 0.000000, -0.013018
0.260000, 0.047635, -0.069346, -0.285789, -0.047410, 0.135000, 0.000000, -0.012635
0.270000, 0.044746, -0.034806, -0.286268, -0.023788, 0.132500, 0.000000, -0.012246
0.280000, 0.041854, -0.004698, -0.286508, -0.003196, 0.130000, 0.000000, -0.011854
0.290000, 0.038960, 0.021432, -0.286541, 0.014675, 0.127500, 0.000000, -0.011460
0.300000, 0.036066, 0.043994, -0.286392, 0.030105, 0.125000, 0.000000, -0.011066
0.310000, 0.033175, 0.063359, -0.286088, 0.043349, 0.122500, 0.000000, -0.010675
0.320000, 0.030288, 0.079865, -0.285650, 0.054638, 0.120000, 0.000000, -0.010288
0.330000, 0.027406, 0.093818, -0.285099, 0.064180, 0.117500, 0.000000, -0.009906
0.340000, 0.024529, 0.105494, -0.284450, 0.072165, 0.115000, 0.000000, -0.009529
0.350000, 0.021660, 0.115141, -0.283722, 0.078764, 0.112500, 0.000000, -0.009160
0.360000, 0.018799, 0.122987, -0.282926, 0.084129, 0.110000, 0.000000, -0.008799
0.370000, 0.015945, 0.129235, -0.282076, 0.088403, 0.107500, 0.000000, -0.008445
0.380000, 0.013101, 0.134070, -0.281183, 0.091709, 0.105000, 0.000000, -0.008101
0.390000, 0.010265, 0.137656, -0.280257, 0.094162, 0.102500, 0.000000, -0.007765
0.400000, 0.007440, 0.140144, -0.279306, 0.095863, 0.100000, 0.000000, -0.007440
0.410000, 0.004623, 0.141669, -0.278338, 0.096906, 0.097500, 0.000000, -0.007123
0.420000, 0.001817, 0.142351, -0.277359, 0.097372, 0.095000, 0.000000, -0.006817
0.430000, -0.000979, 12.000000, -0.276376, 8.206990, 0.092500, 1.000000, 0.092500
0.440000, -0.003356, 12.000000, -0.193485, 8.206986, 1.000000, 1.000000, 1.002377
0.450000, -0.004896, 12.000000, -0.110595, 8.206981, 1.000000, 1.000000, 1.003917
0.460000, -0.005599, 12.000000, -0.027704, 8.206976, 1.000000, 1.000000, 1.004619
0.470000, -0.005464, 12.000000, 0.055186, 8.206971, 1.000000, 1.000000, 1.004485
0.480000, -0.004492, 12.000000, 0.138077, 8.206966, 1.000000, 1.000000, 1.003513
0.490000, -0.002683, 12.000000, 0.220967, 8.206961, 1.000000, 1.000000, 1.001704
0.500000, -0.000037, 12.000000, 0.303857, 8.206956, 1.000000, 1.000000, 0.999058
0.510000, 0.003447, 12.000000, 0.386748, 8.206951, 1.000000, 0.000000, 0.995574
0.520000, 0.007767, 12.000000, 0.469638, 8.206946, 1.000000, 0.000000, 0.991254
0.530000, 0.012925, 12.000000, 0.552528, 8.206942, 1.000000, 0.000000, 0.986096
0.540000, 0.018920, 12.000000, 0.635418, 8.206937, 1.000000, 0.000000, 0.980101
0.550000, 0.025752, 12.000000, 0.718308, 8.206932, 1.000000, 0.000000, 0.973269
0.560000, 0.033421, 12.000000, 0.801198, 8.206927, 1.000000, 0.000000, 0.965599
0.570000, 0.041928, 12.000000, 0.884088, 8.206922, 1.000000, 0.000000, 0.957093
0.580000, 0.051272, 12.000000, 0.966978, 8.206917, 1.000000, 0.000000, 0.947749
0.590000, 0.061453, 12.000000, 1.049868, 8.206912, 1.000000, 0.000000, 0.937568
0.600000, 0.072471, 12.000000, 1.132757, 8.206907, 1.000000, 0.000000, 0.926550
0.610000, 0.084326, 12.000000, 1.215647, 8.206903, 1.000000, 0.000000, 0.914695
0.620000, 0.097019, 12.000000, 1.298537, 8.206898, 1.000000, 0.000000, 0.902002
0.630000, 0.110548, 12.000000, 1.381426, 8.206893, 1.000000, 0.000000, 0.888472
0.640000, 0.124915, 12.000000, 1.464316, 8.206888, 1.000000, 0.000000, 0.874106
0.650000, 0.140119, 12.000000, 1.547206, 8.206883, 1.000000, 0.000000, 0.858902
0.660000, 0.156160, 12.000000, 1.630095, 8.206878, 1.000000, 0.000000, 0.842860
0.670000, 0.173039, 12.000000, 1.712985, 8.206873, 1.000000, 0.000000, 0.825982
0.680000, 0.190754, 12.000000, 1.795874, 8.206868, 1.000000, 0.000000, 0.808266
0.690000, 0.209307, 12.000000, 1.878763, 8.206863, 1.000000, 0.000000, 0.789714
0.700000, 0.228697, 11.317494, 1.961653, 7.740083, 1.000000, 0.000000, 0.770324
0.710000, 0.248901, 8.640783, 2.039827, 5.909437, 1.000000, 0.000000, 0.750120
0.720000, 0.269801, 6.131930, 2.099513, 4.193592, 1.000000, 0.000000, 0.729219
0.730000, 0.291218, 3.917810, 2.141868, 2.679321, 1.000000, 0.000000, 0.707802
0.740000, 0.312986, 1.979348, 2.168929, 1.353577, 1.000000, 0.000000, 0.686034
0.750000, 0.334961, 0.289414, 2.182600, 0.197806, 1.000000, 0.000000, 0.664060
0.760000, 0.357015, -1.177322, 2.184598, -0.805316, 1.000000, 0.000000, 0.642006
0.770000, 0.379039, -2.443885, 2.176464, -1.671537, 1.000000, 0.000000, 0.619982
0.780000, 0.400937, -3.531148, 2.159582, -2.415131, 1.000000, 0.000000, 0.598084
0.790000, 0.422627, -4.458020, 2.135189, -3.049030, 1.000000, 0.000000, 0.576394
0.800000, 0.444038, -5.241623, 2.104394, -3.584946, 1.000000, 0.000000, 0.554983
0.810000, 0.465111, -5.897452, 2.068186, -4.033475, 1.000000, 0.000000, 0.533909
0.820000, 0.485796, -6.439520, 2.027448, -4.404200, 1.000000, 0.000000, 0.513224
0.830000, 0.506051, -6.880491, 1.982965, -4.705784, 1.000000, 0.000000, 0.492969
0.840000, 0.525841, -7.231805, 1.935437, -4.946051, 1.000000, 0.000000, 0.473179
0.850000, 0.545140, -7.503787, 1.885482, -5.132060, 1.000000, 0.000000, 0.453881
0.860000, 0.563924, -7.705747, 1.833648, -5.270180, 1.000000, 0.000000, 0.435097
0.870000, 0.582178, -7.846076, 1.780419, -5.366150, 1.000000, 0.000000, 0.416843
0.880000, 0.599889, -7.932327, 1.726221, -5.425135, 1.000000, 0.000000, 0.399132
0.890000, 0.617050, -7.971296, 1.671427, -5.451783, 1.000000, 0.000000, 0.381971
0.900000, 0.633656, -7.969087, 1.616364, -5.450270, 1.000000, 0.000000, 0.365365
0.910000, 0.649706, -7.931182, 1.561317, -5.424343, 1.000000, 0.000000, 0.349315
0.920000, 0.665201, -7.862494, 1.506531, -5.377362, 1.000000, 0.000000, 0.333820
0.930000, 0.680146, -7.767422, 1.452219, -5.312338, 1.000000, 0.000000, 0.318875
0.940000, 0.694545, -7.649901, 1.398565, -5.231961, 1.000000, 0.000000, 0.304476
0.950000, 0.708406, -7.513444, 1.345722, -5.138633, 1.000000, 0.000000, 0.290615
0.960000, 0.721738, -7.361183, 1.293822, -5.034496, 1.000000, 0.000000, 0.277282
0.970000, 0.734552, -7.195906, 1.242974, -4.921458, 1.000000, 0.000000, 0.264469
0.980000, 0.746857, -7.020087, 1.193267, -4.801210, 1.000000, 0.000000, 0.252164
0.990000, 0.758667, -6.835922, 1.144775, -4.675253, 1.000000, 0.000000, 0.240354
1.000000, 0.769993, -6.645350, 1.097555, -4.544916, 1.000000, 0.000000, 0.229028
1.010000, 0.780849, -6.450084, 1.051651, -4.411368, 1.000000, 0.000000, 0.218172
1.020000, 0.791247, -6.251630, 1.007096, -4.275640, 1.000000, 0.000000, 0.207773
1.030000, 0.801203, -6.051306, 0.963912, -4.138633, 1.000000, 0.000000, 0.197817
1.040000, 0.810730, -5.850267, 0.922112, -4.001137, 1.000000, 0.000000, 0.188291
1.050000, 0.819841, -5.649514, 0.881701, -3.863837, 1.000000, 0.000000, 0.179180
1.060000, 0.828551, -5.449917, 0.842676, -3.727327, 1.000000, 0.000000, 0.170470
1.070000, 0.836874, -5.252224, 0.805030, -3.592120, 1.000000, 0.000000, 0.162147
1.080000, 0.844823, -5.057074, 0.768749, -3.458652, 1.000000, 0.000000, 0.154197
1.090000, 0.852413, -4.865011, 0.733817, -3.327295, 1.000000, 0.000000, 0.146608
1.100000, 0.859656, -4.676492, 0.700211, -3.198362, 1.000000, 0.000000, 0.139364
1.110000, 0.866567, -4.491898, 0.667908, -3.072114, 1.000000, 0.000000, 0.132454
1.120000, 0.873158, -4.311541, 0.636880, -2.948763, 1.000000, 0.000000, 0.125863
1.130000, 0.879441, -4.135673, 0.607097, -2.828482, 1.000000, 0.000000, 0.119579
1.140000, 0.885430, -3.964491, 0.578529, -2.711407, 1.000000, 0.000000, 0.113590
1.150000, 0.891136, -3.798146, 0.551144, -2.597640, 1.000000, 0.000000, 0.107884
1.160000, 0.896572, -3.636747, 0.524908, -2.487255, 1.000000, 0.000000, 0.102449
1.170000, 0.901748, -3.480366, 0.499787, -2.380302, 1.000000, 0.000000, 0.097273
1.180000, 0.906675, -3.329042, 0.475746, -2.276808, 1.000000, 0.000000, 0.092345
1.190000, 0.911365, -3.182786, 0.452750, -2.176780, 1.000000, 0.000000, 0.087655
1.200000, 0.915828, -3.041587, 0.430764, -2.080211, 1.000000, 0.000000, 0.083192
1.210000, 0.920074, -2.905409, 0.409754, -1.987076, 1.000000, 0.000000, 0.078947
1.220000, 0.924112, -2.774202, 0.389685, -1.897340, 1.000000, 0.000000, 0.074908
1.230000, 0.927952, -2.647896, 0.370522, -1.810956, 1.000000, 0.000000, 0.071068
1.240000, 0.931603, -2.526412, 0.352231, -1.727870, 1.000000, 0.000000, 0.067418
1.250000, 0.935073, -2.409657, 0.334780, -1.648019, 1.000000, 0.000000, 0.063947
1.260000, 0.938371, -2.297530, 0.318135, -1.571333, 1.000000, 0.000000, 0.060649
1.270000, 0.941505, -2.189923, 0.302264, -1.497738, 1.000000, 0.000000, 0.057516
1.280000, 0.944482, -2.086722, 0.287137, -1.427157, 1.000000, 0.000000, 0.054538
1.290000, 0.947310, -1.987807, 0.272723, -1.359506, 1.000000, 0.000000, 0.051710
1.300000, 0.949996, -1.893056, 0.258992, -1.294704, 1.000000, 0.000000, 0.049024
1.310000, 0.952547, -1.802343, 0.245915, -1.232663, 1.000000, 0.000000, 0.046474
1.320000, 0.954968, -1.715541, 0.233465, -1.173297, 1.000000, 0.000000, 0.044052
1.330000, 0.957267, -1.632523, 0.221615, -1.116519, 1.000000, 0.000000, 0.041754
1.340000, 0.959449, -1.553162, 0.210338, -1.062242, 1.000000, 0.000000, 0.039572
1.350000, 0.961520, -1.477329, 0.199610, -1.010378, 1.000000, 0.000000, 0.037501
1.360000, 0.963485, -1.404898, 0.189405, -0.960842, 1.000000, 0.000000, 0.035536
1.370000, 0.965349, -1.335746, 0.179700, -0.913546, 1.000000, 0.000000, 0.033672
1.380000, 0.967118, -1.269747, 0.170473, -0.868409, 1.000000, 0.000000, 0.031903
1.390000, 0.968796, -1.206783, 0.161703, -0.825346, 1.000000, 0.000000, 0.030225
1.400000, 0.970387, -1.146732, 0.153367, -0.784276, 1.000000, 0.000000, 0.028633
1.410000, 0.971897, -1.089481, 0.145445, -0.745121, 1.000000, 0.000000, 0.027124
1.420000, 0.973328, -1.034915, 0.137920, -0.707802, 1.000000, 0.000000, 0.025692
1.430000, 0.974685, -0.982925, 0.130771, -0.672244, 1.000000, 0.000000, 0.024335
1.440000, 0.975972, -0.933402, 0.123981, -0.638375, 1.000000, 0.000000, 0.023048
1.450000, 0.977192, -0.886243, 0.117534, -0.606121, 1.000000, 0.000000, 0.021828
1.460000, 0.978349, -0.841347, 0.111412, -0.575416, 1.000000, 0.000000, 0.020672
1.470000, 0.979445, -0.798615, 0.105600, -0.546191, 1.000000, 0.000000, 0.019576
1.480000, 0.980484, -0.757954, 0.100084, -0.518381, 1.000000, 0.000000, 0.018537
1.490000, 0.981469, -0.719271, 0.094848, -0.491926, 1.000000, 0.000000, 0.017552
1.500000, 0.982402, -0.682479, 0.089879, -0.466763, 1.000000, 0.000000, 0.016619
1.510000, 0.983286, -0.647493, 0.085165, -0.442835, 1.000000, 0.000000, 0.015735
1.520000, 0.984124, -0.614230, 0.080693, -0.420086, 1.000000, 0.000000, 0.014897
1.530000, 0.984917, -0.582612, 0.076450, -0.398462, 1.000000, 0.000000, 0.014103
1.540000, 0.985669, -0.552564, 0.072425, -0.377911, 1.000000, 0.000000, 0.013351
1.550000, 0.986382, -0.524012, 0.068608, -0.358383, 1.000000, 0.000000, 0.012639
1.560000, 0.987057, -0.496886, 0.064989, -0.339832, 1.000000, 0.000000, 0.011964
1.570000, 0.987696, -0.471121, 0.061556, -0.322210, 1.000000, 0.000000, 0.011325
1.580000, 0.988301, -0.446650, 0.058302, -0.305474, 1.000000, 0.000000, 0.010719
1.590000, 0.988875, -0.423413, 0.055217, -0.289582, 1.000000, 0.000000, 0.010146
1.600000, 0.989418, -0.401351, 0.052292, -0.274493, 1.000000, 0.000000, 0.009603
1.610000, 0.989932, -0.380408, 0.049520, -0.260169, 1.000000, 0.000000, 0.009088
1.620000, 0.990419, -0.360528, 0.046892, -0.246573, 1.000000, 0.000000, 0.008601
1.630000, 0.990880, -0.341662, 0.044401, -0.233670, 1.000000, 0.000000, 0.008140
1.640000, 0.991317, -0.323759, 0.042041, -0.221426, 1.000000, 0.000000, 0.007704
1.650000, 0.991730, -0.306772, 0.039805, -0.209808, 1.000000, 0.000000, 0.007290
1.660000, 0.992122, -0.290656, 0.037686, -0.198786, 1.000000, 0.000000, 0.006899
1.670000, 0.992492, -0.275369, 0.035678, -0.188331, 1.000000, 0.000000, 0.006528
1.680000, 0.992843, -0.260869, 0.033776, -0.178414, 1.000000, 0.000000, 0.006177
1.690000, 0.993175, -0.247117, 0.031974, -0.169009, 1.000000, 0.000000, 0.005845
1.700000, 0.993490, -0.234076, 0.030267, -0.160090, 1.000000, 0.000000, 0.005531
1.710000, 0.993787, -0.221711, 0.028650, -0.151633, 1.000000, 0.000000, 0.005233
1.720000, 0.994069, -0.209987, 0.027119, -0.143615, 1.000000, 0.000000, 0.004952
1.730000, 0.994336, -0.198872, 0.025668, -0.136013, 1.000000, 0.000000, 0.004685
1.740000, 0.994588, -0.188335, 0.024294, -0.128807, 1.000000, 0.000000, 0.004432
1.750000, 0.994827, -0.178348, 0.022994, -0.121976, 1.000000, 0.000000, 0.004194
1.760000, 0.995053, -0.168882, 0.021762, -0.115502, 1.000000, 0.000000, 0.003968
1.770000, 0.995267, -0.159911, 0.020595, -0.109367, 1.000000, 0.000000, 0.003754
1.780000, 0.995470, -0.151410, 0.019490, -0.103553, 1.000000, 0.000000, 0.003551
1.790000, 0.995661, -0.143354, 0.018444, -0.098043, 1.000000, 0.000000, 0.003359
1.800000, 0.995843, -0.135721, 0.017454, -0.092823, 1.000000, 0.000000, 0.003178
1.810000, 0.996014, -0.128489, 0.016517, -0.087877, 1.000000, 0.000000, 0.003007
1.820000, 0.996177, -0.121638, 0.015629, -0.083191, 1.000000, 0.000000, 0.002844
1.830000, 0.996330, -0.115147, 0.014789, -0.078752, 1.000000, 0.000000, 0.002690
1.840000, 0.996476, -0.108999, 0.013994, -0.074547, 1.000000, 0.000000, 0.002545
1.850000, 0.996613, -0.103175, 0.013241, -0.070564, 1.000000, 0.000000, 0.002408
1.860000, 0.996743, -0.097659, 0.012528, -0.066791, 1.000000, 0.000000, 0.002277
1.870000, 0.996866, -0.092435, 0.011853, -0.063218, 1.000000, 0.000000, 0.002154
1.880000, 0.996983, -0.087487, 0.011215, -0.059834, 1.000000, 0.000000, 0.002038
1.890000, 0.997093, -0.082802, 0.010611, -0.056630, 1.000000, 0.000000, 0.001927
1.900000, 0.997198, -0.078365, 0.010039, -0.053595, 1.000000, 0.000000, 0.001823
1.910000, 0.997296, -0.074163, 0.009497, -0.050722, 1.000000, 0.000000, 0.001724
1.920000, 0.997390, -0.070185, 0.008985, -0.048001, 1.000000, 0.000000, 0.001631
1.930000, 0.997478, -0.066418, 0.008500, -0.045425, 1.000000, 0.000000, 0.001543
1.940000, 0.997561, -0.062852, 0.008041, -0.042986, 1.000000, 0.000000, 0.001459
1.950000, 0.997641, -0.059476, 0.007607, -0.040677, 1.000000, 0.000000, 0.001380
1.960000, 0.997715, -0.056279, 0.007196, -0.038491, 1.000000, 0.000000, 0.001305
1.970000, 0.997786, -0.053254, 0.006808, -0.036421, 1.000000, 0.000000, 0.001235
1.980000, 0.997853, -0.050389, 0.006440, -0.034462, 1.000000, 0.000000, 0.001168
1.990000, 0.997916, -0.047678, 0.006092, -0.032608, 1.000000, 0.000000, 0.001104
2.000000, 0.997976, -0.045111, 0.005762, -0.030852, 1.000000, 0.000000, 0.001045
2.010000, 0.998033, -0.042682, 0.005451, -0.029191, 1.000000, 0.000000, 0.000988
2.020000, 0.998086, -0.040382, 0.005156, -0.027618, 1.000000, 0.000000, 0.000934
2.030000, 0.998137, -0.038206, 0.004877, -0.026130, 1.000000, 0.000000, 0.000884
2.040000, 0.998185, -0.036147, 0.004613, -0.024721, 1.000000, 0.000000, 0.000836
2.050000, 0.998230, -0.034197, 0.004363, -0.023388, 1.000000, 0.000000, 0.000790
2.060000, 0.998273, -0.032352, 0.004127, -0.022127, 1.000000, 0.000000, 0.000747
2.070000, 0.998314, -0.030607, 0.003904, -0.020933, 1.000000, 0.000000, 0.000707
2.080000, 0.998352, -0.028955, 0.003692, -0.019803, 1.000000, 0.000000, 0.000669
2.090000, 0.998388, -0.027391, 0.003492, -0.018733, 1.000000, 0.000000, 0.000632
2.100000, 0.998423, -0.025912, 0.003303, -0.017722, 1.000000, 0.000000, 0.000598
2.110000, 0.998455, -0.024512, 0.003124, -0.016764, 1.000000, 0.000000, 0.000565
2.120000, 0.998486, -0.023187, 0.002955, -0.015858, 1.000000, 0.000000, 0.000535
2.130000, 0.998515, -0.021934, 0.002795, -0.015001, 1.000000, 0.000000, 0.000506
2.140000, 0.998542, -0.020748, 0.002643, -0.014190, 1.000000, 0.000000, 0.000478
2.150000, 0.998568, -0.019626, 0.002500, -0.013423, 1.000000, 0.000000, 0.000452
2.160000, 0.998593, -0.018564, 0.002364, -0.012697, 1.000000, 0.000000, 0.000428
2.170000, 0.998616, -0.017560, 0.002236, -0.012010, 1.000000, 0.000000, 0.000404
2.180000, 0.998638, -0.016610, 0.002115, -0.011360, 1.000000, 0.000000, 0.000382
2.190000, 0.998659, -0.015711, 0.002000, -0.010745, 1.000000, 0.000000, 0.000362
2.200000, 0.998679, -0.014860, 0.001891, -0.010163, 1.000000, 0.000000, 0.000342
2.210000, 0.998697, -0.014055, 0.001789, -0.009613, 1.000000, 0.000000, 0.000323
2.220000, 0.998715, -0.013294, 0.001692, -0.009092, 1.000000, 0.000000, 0.000306
2.230000, 0.998731, -0.012574, 0.001600, -0.008600, 1.000000, 0.000000, 0.000289
2.240000, 0.998747, -0.011893, 0.001513, -0.008134, 1.000000, 0.000000, 0.000274
2.250000, 0.998762, -0.011248, 0.001431, -0.007693, 1.000000, 0.000000, 0.000259
2.260000, 0.998776, -0.010639, 0.001353, -0.007276, 1.000000, 0.000000, 0.000245
2.270000, 0.998789, -0.010062, 0.001280, -0.006881, 1.000000, 0.000000, 0.000231
2.280000, 0.998802, -0.009516, 0.001210, -0.006508, 1.000000, 0.000000, 0.000219
2.290000, 0.998814, -0.009000, 0.001144, -0.006155, 1.000000, 0.000000, 0.000207
2.300000, 0.998825, -0.008512, 0.001082, -0.005822, 1.000000, 0.000000, 0.000196
2.310000, 0.998836, -0.008050, 0.001023, -0.005506, 1.000000, 0.000000, 0.000185
2.320000, 0.998846, -0.007614, 0.000968, -0.005207, 1.000000, 0.000000, 0.000175
2.330000, 0.998855, -0.007201, 0.000915, -0.004925, 1.000000, 0.000000, 0.000165
2.340000, 0.998864, -0.006810, 0.000865, -0.004657, 1.000000, 0.000000, 0.000156
2.350000, 0.998873, -0.006440, 0.000818, -0.004405, 1.000000, 0.000000, 0.000148
2.360000, 0.998881, -0.006091, 0.000774, -0.004166, 1.000000, 0.000000, 0.000140
2.370000, 0.998888, -0.005760, 0.000732, -0.003939, 1.000000, 0.000000, 0.000132
2.380000, 0.998896, -0.005447, 0.000692, -0.003725, 1.000000, 0.000000, 0.000125
2.390000, 0.998902, -0.005151, 0.000654, -0.003523, 1.000000, 0.000000, 0.000118
2.400000, 0.998909, -0.004872, 0.000619, -0.003332, 1.000000, 0.000000, 0.000112
2.410000, 0.998915, -0.004607, 0.000585, -0.003151, 1.000000, 0.000000, 0.000106
2.420000, 0.998921, -0.004357, 0.000553, -0.002980, 1.000000, 0.000000, 0.000100
2.430000, 0.998926, -0.004120, 0.000523, -0.002818, 1.000000, 0.000000, 0.000094
2.440000, 0.998931, -0.003896, 0.000495, -0.002665, 1.000000, 0.000000, 0.000089
